*Frequency 	VF2-abs (dB)	VF2-phase (deg)	VF1-abs (dB)	VF1-phase (deg)
10	39.9987893198237	-0.00114686844556539	0	0
10.162486928707	39.9987893197674	-0.00116550355872585	0	0
10.327614057614	39.9987893197098	-0.00118444146806001	0	0
10.4954242865232	39.9987893196484	-0.00120368709369313	0	0
10.6659612123026	39.9987893195884	-0.00122324543560672	0	0
10.839269140212	39.998789319524	-0.00124312157497749	0	0
11.0153930954142	39.9987893194573	-0.00126332067564136	0	0
11.1943788346715	39.9987893193896	-0.00128384798530132	0	0
11.3762728582343	39.9987893193191	-0.00130470883687275	0	0
11.561122421921	39.998789319249	-0.00132590865006333	0	0
11.7489755493953	39.9987893191731	-0.00134745293250104	0	0
11.9398810446427	39.9987893190939	-0.00136934728132911	0	0
12.1338885046498	39.9987893190154	-0.00139159738473178	0	0
12.3310483322891	39.9987893189319	-0.00141420902322515	0	0
12.5314117494142	39.998789318848	-0.00143718807130924	0	0
12.7350308101666	39.9987893187612	-0.00146054049885783	0	0
12.9419584144999	39.9987893186691	-0.00148427237284609	0	0
13.1522483219224	39.9987893185743	-0.00150838985872914	0	0
13.3659551654644	39.9987893184781	-0.00153289922227798	0	0
13.5831344658715	39.9987893183788	-0.00155780683092712	0	0
13.8038426460288	39.9987893182752	-0.00158311915566627	0	0
14.0281370456196	39.9987893181686	-0.0016088427726153	0	0
14.2560759360219	39.998789318058	-0.00163498436466591	0	0
14.4877185354476	39.9987893179447	-0.00166155072343057	0	0
14.7231250243272	39.9987893178263	-0.00168854875081165	0	0
14.9623565609443	39.9987893177055	-0.00171598546085261	0	0
15.205475297325	39.9987893175804	-0.00174386798154403	0	0
15.4525443953841	39.9987893174487	-0.00177220355679005	0	0
15.7036280433355	39.9987893173168	-0.00180099954808113	0	0
15.9587914723673	39.9987893171786	-0.00183026343657173	0	0
16.2181009735893	39.998789317036	-0.00186000282500338	0	0
16.4816239152551	39.9987893168875	-0.00189022543964274	0	0
16.7494287602644	39.9987893167368	-0.00192093913225622	0	0
17.0215850839495	39.9987893165772	-0.00195215188218796	0	0
17.298163592151	39.9987893164164	-0.00198387179851843	0	0
17.5792361395869	39.9987893162477	-0.00201610712204019	0	0
17.8648757485205	39.9987893160763	-0.00204886622747357	0	0
18.1551566277314	39.9987893158967	-0.00208215762549056	0	0
18.4501541917947	39.9987893157116	-0.00211598996523346	0	0
18.7499450806742	39.9987893155206	-0.00215037203623929	0	0
19.0546071796325	39.9987893153257	-0.00218531277099458	0	0
19.3642196394661	39.9987893151202	-0.0022208212470395	0	0
19.6788628970684	39.9987893149106	-0.00225690668927519	0	0
19.9986186963274	39.9987893146928	-0.00229357847290104	0	0
20.3235701093622	39.9987893144695	-0.00233084612505703	0	0
20.6538015581053	39.998789314239	-0.0023687193278236	0	0
20.9893988362352	39.9987893139997	-0.00240720792061607	0	0
21.3304491314658	39.9987893137537	-0.00244632190282347	0	0
21.6770410481969	39.9987893134981	-0.00248607143597956	0	0
22.0292646305346	39.9987893132351	-0.00252646684718114	0	0
22.3872113856834	39.9987893129618	-0.00256751863093502	0	0
22.7509743077207	39.9987893126816	-0.0026092374526091	0	0
23.1206479017559	39.9987893123923	-0.00265163415044337	0	0
23.4963282084831	39.9987893120924	-0.00269471973936091	0	0
23.8781128291318	39.9987893117839	-0.00273850541268253	0	0
24.2661009508242	39.9987893114641	-0.00278300254602436	0	0
24.6603933723434	39.9987893111327	-0.00282822269958109	0	0
25.0610925303211	39.9987893107913	-0.00287417762146898	0	0
25.4683025258504	39.9987893104409	-0.00292087925090735	0	0
25.8821291515309	39.9987893100754	-0.00296833972065382	0	0
26.3026799189538	39.9987893097005	-0.0030165713609603	0	0
26.7300640866331	39.9987893093138	-0.00306558670251735	0	0
27.1643926883908	39.9987893089127	-0.00311539847921158	0	0
27.6057785622035	39.9987893084995	-0.0031660196321358	0	0
28.0543363795171	39.9987893080721	-0.00321746331266183	0	0
28.5101826750391	39.9987893076315	-0.00326974288575176	0	0
28.9734358770132	39.998789307177	-0.00332287193350171	0	0
29.4442163379876	39.9987893067071	-0.00337686425887911	0	0
29.9226463660819	39.9987893062217	-0.00343173388898849	0	0
30.4088502567628	39.9987893057181	-0.00348749507889287	0	0
30.9029543251359	39.9987893052026	-0.00354416231516952	0	0
31.4050869387622	39.9987893046649	-0.00360175031995238	0	0
31.9153785510076	39.9987893041138	-0.00366027405452791	0	0
32.4339617349349	39.998789303543	-0.00371974872328475	0	0
32.9609712177458	39.9987893029542	-0.00378018977767305	0	0
33.4965439157828	39.9987893023457	-0.0038416129202439	0	0
34.0408189701001	39.9987893017167	-0.00390403410853594	0	0
34.5939377826122	39.9987893010679	-0.0039674695595174	0	0
35.1560440528298	39.9987893003962	-0.00403193575355953	0	0
35.7272838151929	39.9987892997055	-0.00409744943918395	0	0
36.3078054770101	39.9987892989901	-0.00416402763642463	0	0
36.897759857015	39.9987892982514	-0.00423168764238673	0	0
37.4973002245484	39.9987892974884	-0.00430044703489937	0	0
38.1065823393773	39.9987892966999	-0.00437032367769188	0	0
38.7257644921617	39.998789295886	-0.0044413357246932	0	0
39.3550075455777	39.9987892950459	-0.00451350162449636	0	0
39.9944749761097	39.9987892941789	-0.00458684012582965	0	0
40.6443329165213	39.9987892932836	-0.00466137028202216	0	0
41.3047501990161	39.9987892923565	-0.0047371114556646	0	0
41.9758983991007	39.998789291401	-0.00481408332453391	0	0
42.6579518801593	39.9987892904137	-0.00489230588544947	0	0
43.3510878387529	39.998789289395	-0.00497179946091358	0	0
44.0554863506553	39.998789288341	-0.00505258470290122	0	0
44.7713304176363	39.9987892872533	-0.00513468259946949	0	0
45.4988060150049	39.9987892861305	-0.00521811447975257	0	0
46.238102139926	39.9987892849694	-0.00530290201869157	0	0
46.9894108605215	39.9987892837738	-0.00538906724449225	0	0
47.7529273657691	39.9987892825366	-0.00547663254248967	0	0
48.5288500162121	39.9987892812586	-0.00556562066211398	0	0
49.3173803954936	39.9987892799379	-0.00565605472228057	0	0
50.1187233627272	39.9987892785764	-0.0057479582177141	0	0
50.9330871057195	39.9987892771694	-0.00584135502492659	0	0
51.7606831950568	39.9987892757157	-0.00593626940798735	0	0
52.6017266390706	39.9987892742125	-0.00603272602560522	0	0
53.4564359396972	39.9987892726638	-0.00613074993735642	0	0
54.3250331492433	39.9987892710617	-0.00623036660937948	0	0
55.2077439280757	39.9987892694092	-0.00633160192202616	0	0
56.1047976032471	39.9987892677018	-0.00643448217617586	0	0
57.0164272280747	39.998789265938	-0.00653903409995348	0	0
57.9428696426881	39.9987892641164	-0.00664528485581558	0	0
58.8843655355589	39.998789262236	-0.00675326204747285	0	0
59.841159506032	39.9987892602934	-0.00686299372733524	0	0
60.8135001278718	39.998789258287	-0.00697450840362912	0	0
61.8016400138416	39.9987892562145	-0.00708783504748671	0	0
62.8058358813318	39.9987892540736	-0.00720300310107529	0	0
63.8263486190549	39.9987892518652	-0.00732004248500988	0	0
64.8634433548238	39.9987892495822	-0.00743898360581151	0	0
65.9173895244321	39.9987892472256	-0.00755985736428674	0	0
66.9884609416526	39.9987892447904	-0.00768269516344606	0	0
68.0769358693742	39.9987892422754	-0.00780752891594766	0	0
69.1830970918936	39.9987892396805	-0.00793439105392668	0	0
70.3072319883833	39.9987892369984	-0.00806331453557965	0	0
71.4496326075513	39.9987892342275	-0.00819433285521003	0	0
72.6105957435155	39.9987892313688	-0.0083274800513705	0	0
73.7904230129101	39.9987892284132	-0.00846279071514606	0	0
74.9894209332456	39.9987892253631	-0.00860030000029223	0	0
76.2079010025412	39.9987892222149	-0.00874004363152537	0	0
77.4461797802519	39.9987892189578	-0.00888205791390433	0	0
78.7045789695099	39.9987892155985	-0.00902637974244833	0	0
79.9834255007028	39.9987892121291	-0.00917304661239723	0	0
81.2830516164099	39.9987892085424	-0.00932209662682506	0	0
82.6037949577179	39.9987892048415	-0.00947356850926756	0	0
83.9459986519398	39.9987892010196	-0.00962750161169987	0	0
85.310011401759	39.9987891970724	-0.00978393592553792	0	0
86.6961875758217	39.998789192994	-0.00994291209233415	0	0
88.1048873008014	39.9987891887822	-0.010104471413878	0	0
89.5364765549594	39.9987891844326	-0.0102686558632222	0	0
90.9913272632252	39.9987891799409	-0.0104355080949846	0	0
92.4698173938222	39.998789175303	-0.010605071457151	0	0
93.9723310564638	39.9987891705135	-0.0107773900020353	0	0
95.4992586021436	39.9987891655642	-0.0109525084980224	0	0
97.050996724549	39.9987891604545	-0.0111304724407767	0	0
98.627948563121	39.9987891551784	-0.0113113280643519	0	0
100.23052380779	39.9987891497274	-0.0114951223552096	0	0
101.859138805412	39.9987891440973	-0.0116819030628521	0	0
103.514216667934	39.9987891382856	-0.0118717187125493	0	0
105.196187382322	39.9987891322818	-0.0120646186182737	0	0
106.905487922266	39.998789126083	-0.012260652895148	0	0
108.642562361707	39.9987891196789	-0.0124598724723886	0	0
110.407861990207	39.9987891130657	-0.0126623291068655	0	0
112.201845430196	39.9987891062368	-0.0128680753970175	0	0
114.024978756117	39.9987890991824	-0.0130771647946796	0	0
115.877735615513	39.9987890918984	-0.0132896516218384	0	0
117.760597352081	39.9987890843761	-0.0135055910818262	0	0
119.674053130724	39.9987890766061	-0.0137250392752428	0	0
121.618600064637	39.998789068582	-0.0139480532141896	0	0
123.594743344451	39.9987890602946	-0.0141746908382756	0	0
125.602996369487	39.9987890517366	-0.0144050110269014	0	0
127.643880881134	39.9987890428954	-0.0146390736168342	0	0
129.717927098396	39.9987890337672	-0.0148769394177325	0	0
131.825673855641	39.998789024341	-0.0151186702264216	0	0
133.967668742594	39.9987890146046	-0.0153643288443886	0	0
136.144468246595	39.9987890045474	-0.015613979092617	0	0
138.356637897178	39.9987889941639	-0.0158676858311691	0	0
140.604752412991	39.9987889834373	-0.0161255149711338	0	0
142.88939585111	39.998788972361	-0.0163875334978883	0	0
145.211161758774	39.9987889609218	-0.0166538094819457	0	0
147.570653327589	39.9987889491078	-0.0169244121021176	0	0
149.968483550237	39.9987889369091	-0.017199411660625	0	0
152.405275379729	39.9987889243062	-0.0174788796011004	0	0
154.881661891248	39.998788911292	-0.0177628885304273	0	0
157.398286446622	39.9987888978548	-0.0180515122320743	0	0
159.955802861467	39.9987888839732	-0.0183448256907256	0	0
162.554875575048	39.998788869637	-0.0186429051084065	0	0
165.196179822901	39.998788854834	-0.0189458279265337	0	0
167.880401812256	39.9987888395437	-0.0192536728435336	0	0
170.608238900312	39.9987888237534	-0.0195665198368362	0	0
173.380399775414	39.9987888074437	-0.0198844501833797	0	0
176.197604641163	39.9987887906025	-0.0202075464816135	0	0
179.060585403529	39.9987887732081	-0.0205358926708429	0	0
181.970085860998	39.9987887552439	-0.0208695740547989	0	0
184.926861897808	39.9987887366921	-0.0212086773239566	0	0
187.931681680327	39.998788717532	-0.0215532905768056	0	0
190.985325856624	39.9987886977458	-0.0219035033427988	0	0
194.088587759278	39.9987886773067	-0.0222594066065159	0	0
197.242273611485	39.9987886562	-0.0226210928317497	0	0
200.447202736516	39.9987886344041	-0.022988655983483	0	0
203.704207770572	39.9987886118936	-0.0233621915544991	0	0
207.014134879104	39.998788588646	-0.0237417965875616	0	0
210.377843976647	39.9987885646335	-0.0241275697044001	0	0
213.796208950223	39.9987885398364	-0.0245196111277499	0	0
217.270117886374	39.9987885142268	-0.0249180227098469	0	0
220.80047330189	39.9987884877796	-0.0253229079569512	0	0
224.388192378277	39.9987884604629	-0.0257343720574429	0	0
228.034207200042	39.9987884322546	-0.0261525219090672	0	0
231.739464996848	39.9987884031191	-0.0265774661464282	0	0
235.504928389601	39.9987883730312	-0.0270093151693897	0	0
239.331575640539	39.9987883419576	-0.0274481811714734	0	0
243.220400907382	39.9987883098651	-0.0278941781689666	0	0
247.172414501613	39.9987882767196	-0.0283474220313573	0	0
251.188643150958	39.9987882424904	-0.0288080305104579	0	0
255.270130266125	39.9987882071412	-0.0292761232719181	0	0
259.417936211881	39.9987881706324	-0.0297518219248841	0	0
263.633138582538	39.9987881329269	-0.0302352500546425	0	0
267.916832481903	39.9987880939874	-0.0307265332556851	0	0
272.270130807791	39.998788053768	-0.03122579916181	0	0
276.694164541151	39.9987880122366	-0.0317331774824902	0	0
281.190083039894	39.9987879693412	-0.0322488000312528	0	0
285.759054337495	39.998787925043	-0.0327728007683911	0	0
290.402265446445	39.9987878792915	-0.0333053158258119	0	0
295.120922666638	39.9987878320422	-0.0338464835525436	0	0
299.916251898765	39.9987877832443	-0.0343964445405875	0	0
304.789498962798	39.9987877328465	-0.0349553416697018	0	0
309.741929921658	39.9987876808001	-0.0355233201402269	0	0
314.774831410132	39.9987876270469	-0.0361005275111853	0	0
319.88951096914	39.998787571533	-0.036687113740882	0	0
325.087297385434	39.9987875141992	-0.037283231221101	0	0
330.369541036815	39.9987874549898	-0.0378890348234611	0	0
335.737614242955	39.9987873938388	-0.038504681934422	0	0
341.192911621929	39.9987873306841	-0.0391303324977251	0	0
346.736850452532	39.9987872654615	-0.0397661490543232	0	0
352.370871042487	39.9987871981029	-0.0404122967906223	0	0
358.096437102636	39.9987871285359	-0.041068943571899	0	0
363.915036127207	39.9987870566901	-0.041736259994679	0	0
369.828179780266	39.9987869824925	-0.0424144194253861	0	0
375.837404288444	39.9987869058618	-0.0431035980483707	0	0
381.944270840047	39.9987868267199	-0.0438039749104787	0	0
388.150365990648	39.998786744985	-0.0445157319683166	0	0
394.457302075279	39.9987866605748	-0.0452390541352141	0	0
400.866717627303	39.9987865733978	-0.0459741293264339	0	0
407.380277804113	39.9987864833667	-0.0467211485139006	0	0
413.999674819731	39.9987863903826	-0.0474803057698999	0	0
420.726628384444	39.9987862943541	-0.0482517983243915	0	0
427.562886151586	39.9987861951796	-0.0490358266056125	0	0
434.510224171572	39.9987860927565	-0.0498325943029208	0	0
441.570447353312	39.9987859869768	-0.0506423084156694	0	0
448.745389933132	39.9987858777319	-0.0514651793033357	0	0
456.036915951296	39.9987857649071	-0.0523014207458697	0	0
463.446919736288	39.9987856483873	-0.0531512499972127	0	0
470.977326396953	39.9987855280527	-0.0540148878394107	0	0
478.630092322638	39.9987854037707	-0.0548925586432587	0	0
486.407205691462	39.9987852754194	-0.0557844904240821	0	0
494.310686986835	39.9987851428634	-0.0566909149053591	0	0
502.342589522387	39.998785005964	-0.0576120675691345	0	0
510.504999975406	39.9987848645809	-0.0585481877322506	0	0
518.800038928961	39.9987847185649	-0.0594995185914228	0	0
527.229861422823	39.9987845677644	-0.0604663073012814	0	0
535.796657513342	39.9987844120243	-0.0614488050280081	0	0
544.502652842421	39.9987842511827	-0.0624472670245985	0	0
553.350109215737	39.9987840850724	-0.0634619526868469	0	0
562.341325190349	39.9987839135184	-0.0644931256213362	0	0
571.478636671867	39.9987837363429	-0.0655410537284713	0	0
580.764417521312	39.9987835533635	-0.0666060092535768	0	0
590.201080171844	39.9987833643923	-0.0676882688686909	0	0
599.79107625551	39.998783169227	-0.0687881137388293	0	0
609.53689724017	39.9987829676697	-0.0699058296000082	0	0
619.441075076782	39.998782759509	-0.0710417068308003	0	0
629.506182857197	39.9987825445288	-0.0721960405242132	0	0
639.734835482648	39.9987823225034	-0.0733691305742616	0	0
650.12969034309	39.9987820932041	-0.0745612817416355	0	0
660.693448007596	39.9987818563935	-0.0757728037444639	0	0
671.428852925953	39.9987816118253	-0.0770040113277068	0	0
682.33869414167	39.9987813592446	-0.0782552243518153	0	0
693.425806016569	39.9987810983919	-0.0795267678803202	0	0
704.693068967147	39.9987808289901	-0.0808189722504239	0	0
716.143410212902	39.9987805507612	-0.0821321731709071	0	0
727.779804536825	39.9987802634201	-0.0834667118015274	0	0
739.605275058238	39.9987799666629	-0.0848229348501786	0	0
751.622894018206	39.998779660184	-0.0862011946562584	0	0
763.835783577691	39.9987793436664	-0.0876018492841924	0	0
776.247116628692	39.9987790167764	-0.0890252626153743	0	0
788.860117618554	39.9987786791793	-0.0904718044414718	0	0
801.67806338768	39.9987783305198	-0.0919418505659005	0	0
814.70428402084	39.9987779704402	-0.0934357828966095	0	0
827.942163712335	39.9987775985612	-0.0949539895512339	0	0
841.395141645196	39.9987772145026	-0.0964968649436344	0	0
855.066712884683	39.9987768178597	-0.0980648099057852	0	0
868.960429286302	39.9987764082218	-0.0996582317780038	0	0
883.079900418563	39.9987759851658	-0.101277544518719	0	0
897.428794500749	39.9987755482473	-0.102923168812734	0	0
912.01083935591	39.9987750970156	-0.104595532179744	0	0
926.82982337935	39.9987746310017	-0.10629506908891	0	0
941.889596522841	39.9987741497196	-0.108022221067056	0	0
957.194071294845	39.9987736526705	-0.109777436805283	0	0
972.747223776965	39.9987731393372	-0.111561172304224	0	0
988.553094656939	39.9987726091875	-0.113373890955738	0	0
1004.6157902784	39.9987720616686	-0.11521606368924	0	0
1020.93948370768	39.9987714962118	-0.11708816908516	0	0
1037.52841581801	39.9987709122297	-0.118990693495779	0	0
1054.38689639126	39.9987703091164	-0.120924131179602	0	0
1071.51930523761	39.9987696862441	-0.122888984423808	0	0
1088.93009333343	39.9987690429673	-0.12488576367809	0	0
1106.62378397767	39.9987683786153	-0.126914987680848	0	0
1124.60497396693	39.9987676924954	-0.128977183602455	0	0
1142.87833478977	39.9987669839001	-0.131072887180134	0	0
1161.44861384034	39.9987662520905	-0.133202642851143	0	0
1180.32063565173	39.9987654963038	-0.135367003899154	0	0
1199.49930314938	39.9987647157598	-0.137566532599626	0	0
1218.98959892487	39.9987639096409	-0.139801800363007	0	0
1238.79658653037	39.9987630771153	-0.142073387881467	0	0
1258.92541179417	39.9987622173127	-0.144381885280545	0	0
1279.38130415753	39.9987613293434	-0.146727892275361	0	0
1300.16957803329	39.9987604122831	-0.149112018329466	0	0
1321.29563418658	39.9987594651797	-0.151534882798813	0	0
1342.76496113786	39.9987584870468	-0.153997115110312	0	0
1364.58313658893	39.9987574768702	-0.156499354901684	0	0
1386.75582887189	39.9987564335977	-0.159042252230328	0	0
1409.28879842187	39.9987553561452	-0.161626467691389	0	0
1432.18789927354	39.9987542433967	-0.164252672617147	0	0
1455.45908058197	39.998753094192	-0.166921549253755	0	0
1479.10838816821	39.9987519073407	-0.169633790924012	0	0
1503.14196609002	39.9987506816026	-0.172390102213692	0	0
1527.56605823807	39.9987494157114	-0.175191199167479	0	0
1552.38700995808	39.9987481083455	-0.17803780944435	0	0
1577.61126969935	39.9987467581509	-0.180930672544824	0	0
1603.24539069004	39.9987453637198	-0.183870539962092	0	0
1629.29603263972	39.9987439236088	-0.186858175419848	0	0
1655.76996346953	39.9987424363176	-0.189894355037043	0	0
1682.67406107047	39.9987409002989	-0.192979867536807	0	0
1710.01531509029	39.9987393139611	-0.196115514464929	0	0
1737.80082874938	39.9987376756541	-0.199302110379583	0	0
1766.03782068616	39.998735983671	-0.202540483085543	0	0
1794.73362683253	39.9987342362601	-0.205831473822383	0	0
1823.89570231964	39.9987324316007	-0.20917593750249	0	0
1853.53162341481	39.9987305678202	-0.212574742924214	0	0
1883.6490894898	39.9987286429772	-0.216028772995266	0	0
1914.25592502109	39.9987266550766	-0.219538924974097	0	0
1945.36008162266	39.998724602051	-0.223106110687203	0	0
1976.96964011186	39.9987224817653	-0.226731256780242	0	0
2009.09281260873	39.9987202920188	-0.230415304945348	0	0
2041.73794466953	39.9987180305339	-0.234159212180051	0	0
2074.91351745491	39.9987156949613	-0.237963951012549	0	0
2108.62814993329	39.9987132828711	-0.241830509782551	0	0
2142.89060112006	39.9987107917599	-0.245759892881184	0	0
2177.70977235316	39.9987082190395	-0.249753121015389	0	0
2213.09470960564	39.998705562032	-0.253811231459749	0	0
2249.05460583578	39.9987028179811	-0.257935278353693	0	0
2285.59880337543	39.998699984031	-0.262126332946643	0	0
2322.73679635711	39.9986970572416	-0.266385483904619	0	0
2360.47823318058	39.9986940345664	-0.270713837564951	0	0
2398.83291901949	39.9986909128667	-0.275112518220167	0	0
2437.81081836875	39.9986876888971	-0.279582668449662	0	0
2477.42205763329	39.9986843593106	-0.28412544938113	0	0
2517.67692775886	39.9986809206429	-0.288742041005807	0	0
